 # DEL =   0.25000000000000000        NGRID =           50
 # A =    16.000000000000000       Z =    8.0000000000000000     
# l,2j,q,node,e =   0  1  0  0 -30.73265
# l,2j,q,node,e =   1  3  0  0 -17.64279
# l,2j,q,node,e =   1  1  0  0 -12.92038
# l,2j,q,node,e =   0  1  1  0 -28.56661
# l,2j,q,node,e =   1  3  1  0 -15.55652
# l,2j,q,node,e =   1  1  1  0 -10.83588
  # mass =    16.000000000000000      z =    8.0000000000000000     
#    10 points in response mesh, with mesh size=0.50
# t0=  -1100.00   t3=  15000.   x=0.50   vscal=0.93
 # l=            1  gam=    1.0000000000000000     
 # type of field:    1.0000000000000000     
    0.00000  0.7589E+00  0.0000E+00  0.3514E+00  0.0000E+00
    0.20000  0.7591E+00  0.8173E-03  0.3511E+00  0.8826E-03
    0.40000  0.7596E+00  0.1637E-02  0.3506E+00  0.1238E-02
    0.60000  0.7604E+00  0.2461E-02  0.3504E+00  0.1219E-02
    0.80000  0.7616E+00  0.3293E-02  0.3506E+00  0.1181E-02
    1.00000  0.7630E+00  0.4134E-02  0.3509E+00  0.1222E-02
    1.20000  0.7648E+00  0.4987E-02  0.3514E+00  0.1325E-02
    1.40000  0.7670E+00  0.5855E-02  0.3519E+00  0.1466E-02
    1.60000  0.7695E+00  0.6741E-02  0.3525E+00  0.1630E-02
    1.80000  0.7724E+00  0.7647E-02  0.3531E+00  0.1810E-02
    2.00000  0.7756E+00  0.8577E-02  0.3539E+00  0.2001E-02
    2.20000  0.7792E+00  0.9534E-02  0.3547E+00  0.2199E-02
    2.40000  0.7832E+00  0.1052E-01  0.3557E+00  0.2405E-02
    2.60000  0.7875E+00  0.1154E-01  0.3566E+00  0.2618E-02
    2.80000  0.7923E+00  0.1260E-01  0.3577E+00  0.2837E-02
    3.00000  0.7976E+00  0.1370E-01  0.3589E+00  0.3063E-02
    3.20000  0.8032E+00  0.1485E-01  0.3602E+00  0.3295E-02
    3.40000  0.8094E+00  0.1606E-01  0.3615E+00  0.3535E-02
    3.60000  0.8160E+00  0.1732E-01  0.3630E+00  0.3784E-02
    3.80000  0.8231E+00  0.1865E-01  0.3645E+00  0.4040E-02
    4.00000  0.8308E+00  0.2005E-01  0.3662E+00  0.4307E-02
    4.20000  0.8390E+00  0.2154E-01  0.3680E+00  0.4584E-02
    4.40000  0.8479E+00  0.2311E-01  0.3699E+00  0.4872E-02
    4.60000  0.8574E+00  0.2479E-01  0.3719E+00  0.5173E-02
    4.80000  0.8675E+00  0.2658E-01  0.3740E+00  0.5488E-02
    5.00000  0.8784E+00  0.2851E-01  0.3762E+00  0.5819E-02
    5.20000  0.8901E+00  0.3057E-01  0.3786E+00  0.6168E-02
    5.40000  0.9026E+00  0.3281E-01  0.3811E+00  0.6536E-02
    5.60000  0.9161E+00  0.3522E-01  0.3838E+00  0.6925E-02
    5.80000  0.9305E+00  0.3786E-01  0.3866E+00  0.7340E-02
    6.00000  0.9460E+00  0.4074E-01  0.3896E+00  0.7784E-02
    6.20000  0.9626E+00  0.4390E-01  0.3928E+00  0.8260E-02
    6.40000  0.9806E+00  0.4739E-01  0.3962E+00  0.8773E-02
    6.60000  0.9999E+00  0.5128E-01  0.3998E+00  0.9331E-02
    6.80000  0.1021E+01  0.5562E-01  0.4036E+00  0.9941E-02
    7.00000  0.1044E+01  0.6052E-01  0.4076E+00  0.1061E-01
    7.20000  0.1068E+01  0.6608E-01  0.4119E+00  0.1136E-01
    7.40000  0.1095E+01  0.7247E-01  0.4165E+00  0.1220E-01
    7.60000  0.1125E+01  0.7990E-01  0.4215E+00  0.1315E-01
    7.80000  0.1157E+01  0.8865E-01  0.4268E+00  0.1426E-01
    8.00000  0.1193E+01  0.9914E-01  0.4326E+00  0.1555E-01
    8.20000  0.1232E+01  0.1120E+00  0.4388E+00  0.1710E-01
    8.40000  0.1277E+01  0.1281E+00  0.4457E+00  0.1899E-01
    8.60000  0.1326E+01  0.1489E+00  0.4532E+00  0.2139E-01
    8.80000  0.1382E+01  0.1770E+00  0.4615E+00  0.2451E-01
    9.00000  0.1444E+01  0.2163E+00  0.4707E+00  0.2874E-01
    9.20000  0.1511E+01  0.2741E+00  0.4810E+00  0.3474E-01
    9.40000  0.1574E+01  0.3609E+00  0.4921E+00  0.4364E-01
    9.60000  0.1605E+01  0.4837E+00  0.5032E+00  0.5737E-01
    9.80000  0.1559E+01  0.6103E+00  0.5107E+00  0.7840E-01
   10.00000  0.1452E+01  0.6482E+00  0.5061E+00  0.1062E+00
   10.20000  0.1399E+01  0.5800E+00  0.4806E+00  0.1271E+00
   10.40000  0.1446E+01  0.4997E+00  0.4482E+00  0.1209E+00
   10.60000  0.1554E+01  0.4590E+00  0.4344E+00  0.9607E-01
   10.80000  0.1690E+01  0.4593E+00  0.4393E+00  0.7335E-01
   11.00000  0.1846E+01  0.4942E+00  0.4523E+00  0.5869E-01
   11.20000  0.2022E+01  0.5628E+00  0.4676E+00  0.5024E-01
   11.40000  0.2223E+01  0.6713E+00  0.4833E+00  0.4570E-01
   11.60000  0.2456E+01  0.8351E+00  0.4991E+00  0.4362E-01
   11.80000  0.2732E+01  0.1088E+01  0.5166E+00  0.4356E-01
   12.00000  0.3028E+01  0.1474E+01  0.5325E+00  0.4461E-01
   12.20000  0.3312E+01  0.2083E+01  0.5493E+00  0.4657E-01
   12.40000  0.3426E+01  0.3037E+01  0.5670E+00  0.4951E-01
   12.60000  0.2960E+01  0.4336E+01  0.5865E+00  0.5409E-01
   12.80000  0.1479E+01  0.5293E+01  0.6071E+00  0.5982E-01
   13.00000 -0.2948E+00  0.4944E+01  0.6300E+00  0.6777E-01
   13.20000 -0.1148E+01  0.3785E+01  0.6541E+00  0.7934E-01
   13.40000 -0.1168E+01  0.2814E+01  0.6786E+00  0.9611E-01
   13.60000 -0.8675E+00  0.2266E+01  0.6997E+00  0.1192E+00
   13.80000 -0.5603E+00  0.2131E+01  0.7153E+00  0.1413E+00
   14.00000 -0.3282E+00  0.2181E+01  0.7235E+00  0.1596E+00
   14.20000 -0.2670E+00  0.2412E+01  0.7357E+00  0.1685E+00
   14.40000 -0.4766E+00  0.2701E+01  0.7581E+00  0.1752E+00
   14.60000 -0.9675E+00  0.2815E+01  0.7896E+00  0.1863E+00
   14.80000 -0.1496E+01  0.2564E+01  0.8279E+00  0.2048E+00
   15.00000 -0.1776E+01  0.2091E+01  0.8712E+00  0.2330E+00
   15.20000 -0.1814E+01  0.1644E+01  0.9164E+00  0.2731E+00
   15.40000 -0.1733E+01  0.1302E+01  0.9600E+00  0.3247E+00
   15.60000 -0.1612E+01  0.1053E+01  0.1002E+01  0.3866E+00
   15.80000 -0.1483E+01  0.8731E+00  0.1042E+01  0.4614E+00
   16.00000 -0.1361E+01  0.7403E+00  0.1079E+01  0.5541E+00
   16.20000 -0.1248E+01  0.6405E+00  0.1106E+01  0.6690E+00
   16.40000 -0.1129E+01  0.5707E+00  0.1089E+01  0.8105E+00
   16.60000 -0.1043E+01  0.5161E+00  0.1057E+01  0.9579E+00
   16.80000 -0.9639E+00  0.4708E+00  0.9783E+00  0.1115E+01
   17.00000 -0.8912E+00  0.4343E+00  0.8436E+00  0.1257E+01
   17.20000 -0.8240E+00  0.4051E+00  0.6578E+00  0.1356E+01
   17.40000 -0.7588E+00  0.3883E+00  0.4372E+00  0.1359E+01
   17.60000 -0.7003E+00  0.3720E+00  0.2453E+00  0.1312E+01
   17.80000 -0.6372E+00  0.3724E+00  0.1068E+00  0.1172E+01
   18.00000 -0.5860E+00  0.3718E+00  0.2827E-01  0.1049E+01
   18.20000 -0.5377E+00  0.3793E+00 -0.4400E-03  0.9290E+00
   18.40000 -0.4934E+00  0.3967E+00  0.9327E-02  0.8255E+00
   18.60000 -0.4673E+00  0.4419E+00  0.7426E-01  0.7546E+00
   18.80000 -0.4575E+00  0.4812E+00  0.1272E+00  0.7209E+00
   19.00000 -0.4736E+00  0.5209E+00  0.1845E+00  0.7190E+00
   19.20000 -0.5160E+00  0.5425E+00  0.2334E+00  0.7507E+00
   19.40000 -0.5672E+00  0.5313E+00  0.2590E+00  0.8109E+00
   19.60000 -0.6044E+00  0.4924E+00  0.2488E+00  0.8859E+00
   19.80000 -0.6190E+00  0.4434E+00  0.2003E+00  0.9553E+00
   20.00000 -0.6158E+00  0.3976E+00  0.1235E+00  0.1001E+01
   20.20000 -0.6026E+00  0.3595E+00  0.3502E-01  0.1017E+01
   20.40000 -0.5850E+00  0.3291E+00 -0.4985E-01  0.1004E+01
   20.60000 -0.5660E+00  0.3050E+00 -0.1224E+00  0.9724E+00
   20.80000 -0.5472E+00  0.2857E+00 -0.1798E+00  0.9294E+00
   21.00000 -0.5292E+00  0.2699E+00 -0.2231E+00  0.8821E+00
   21.20000 -0.5124E+00  0.2567E+00 -0.2544E+00  0.8345E+00
   21.40000 -0.4968E+00  0.2455E+00 -0.2765E+00  0.7890E+00
   21.60000 -0.4823E+00  0.2357E+00 -0.2916E+00  0.7467E+00
   21.80000 -0.4689E+00  0.2272E+00 -0.3015E+00  0.7079E+00
   22.00000 -0.4565E+00  0.2195E+00 -0.3078E+00  0.6726E+00
   22.20000 -0.4450E+00  0.2124E+00 -0.3114E+00  0.6407E+00
   22.40000 -0.4343E+00  0.2059E+00 -0.3132E+00  0.6118E+00
   22.60000 -0.4243E+00  0.1998E+00 -0.3137E+00  0.5855E+00
   22.80000 -0.4150E+00  0.1941E+00 -0.3134E+00  0.5615E+00
   23.00000 -0.4063E+00  0.1886E+00 -0.3125E+00  0.5395E+00
   23.20000 -0.3980E+00  0.1833E+00 -0.3112E+00  0.5192E+00
   23.40000 -0.3902E+00  0.1781E+00 -0.3097E+00  0.5005E+00
   23.60000 -0.3828E+00  0.1732E+00 -0.3081E+00  0.4830E+00
   23.80000 -0.3757E+00  0.1683E+00 -0.3064E+00  0.4667E+00
   24.00000 -0.3690E+00  0.1636E+00 -0.3046E+00  0.4512E+00
   24.20000 -0.3625E+00  0.1590E+00 -0.3028E+00  0.4367E+00
   24.40000 -0.3562E+00  0.1545E+00 -0.3010E+00  0.4228E+00
   24.60000 -0.3501E+00  0.1501E+00 -0.2992E+00  0.4096E+00
   24.80000 -0.3443E+00  0.1458E+00 -0.2974E+00  0.3970E+00
   25.00000 -0.3386E+00  0.1416E+00 -0.2955E+00  0.3849E+00
   25.20000 -0.3330E+00  0.1375E+00 -0.2935E+00  0.3733E+00
   25.40000 -0.3276E+00  0.1335E+00 -0.2915E+00  0.3621E+00
   25.60000 -0.3224E+00  0.1296E+00 -0.2895E+00  0.3514E+00
   25.80000 -0.3172E+00  0.1258E+00 -0.2874E+00  0.3410E+00
   26.00000 -0.3122E+00  0.1221E+00 -0.2853E+00  0.3310E+00
   26.20000 -0.3074E+00  0.1185E+00 -0.2831E+00  0.3215E+00
   26.40000 -0.3026E+00  0.1150E+00 -0.2808E+00  0.3122E+00
   26.60000 -0.2979E+00  0.1116E+00 -0.2786E+00  0.3033E+00
   26.80000 -0.2934E+00  0.1083E+00 -0.2762E+00  0.2947E+00
   27.00000 -0.2889E+00  0.1051E+00 -0.2739E+00  0.2864E+00
   27.20000 -0.2846E+00  0.1020E+00 -0.2716E+00  0.2784E+00
   27.40000 -0.2803E+00  0.9890E-01 -0.2692E+00  0.2707E+00
   27.60000 -0.2761E+00  0.9592E-01 -0.2669E+00  0.2633E+00
   27.80000 -0.2720E+00  0.9301E-01 -0.2645E+00  0.2561E+00
   28.00000 -0.2680E+00  0.9018E-01 -0.2621E+00  0.2492E+00
   28.20000 -0.2641E+00  0.8741E-01 -0.2598E+00  0.2424E+00
   28.40000 -0.2603E+00  0.8471E-01 -0.2575E+00  0.2359E+00
   28.60000 -0.2565E+00  0.8207E-01 -0.2552E+00  0.2296E+00
   28.80000 -0.2528E+00  0.7949E-01 -0.2529E+00  0.2235E+00
   29.00000 -0.2491E+00  0.7697E-01 -0.2507E+00  0.2175E+00
   29.20000 -0.2455E+00  0.7450E-01 -0.2484E+00  0.2117E+00
   29.40000 -0.2420E+00  0.7210E-01 -0.2462E+00  0.2061E+00
   29.60000 -0.2385E+00  0.6974E-01 -0.2441E+00  0.2005E+00
   29.80000 -0.2349E+00  0.6771E-01 -0.2412E+00  0.1951E+00
   30.00000 -0.2316E+00  0.6550E-01 -0.2390E+00  0.1900E+00
   30.20000 -0.2283E+00  0.6334E-01 -0.2368E+00  0.1849E+00
   30.40000 -0.2250E+00  0.6124E-01 -0.2346E+00  0.1800E+00
   30.60000 -0.2218E+00  0.5920E-01 -0.2324E+00  0.1752E+00
   30.80000 -0.2186E+00  0.5721E-01 -0.2302E+00  0.1704E+00
   31.00000 -0.2154E+00  0.5529E-01 -0.2280E+00  0.1657E+00
   31.20000 -0.2123E+00  0.5387E-01 -0.2246E+00  0.1614E+00
   31.40000 -0.2093E+00  0.5208E-01 -0.2223E+00  0.1572E+00
   31.60000 -0.2064E+00  0.5035E-01 -0.2201E+00  0.1531E+00
   31.80000 -0.2035E+00  0.4868E-01 -0.2177E+00  0.1491E+00
   32.00000 -0.2007E+00  0.4705E-01 -0.2154E+00  0.1452E+00
   32.20000 -0.1979E+00  0.4547E-01 -0.2131E+00  0.1415E+00
   32.40000 -0.1952E+00  0.4393E-01 -0.2108E+00  0.1379E+00
   32.60000 -0.1925E+00  0.4241E-01 -0.2085E+00  0.1344E+00
   32.80000 -0.1899E+00  0.4092E-01 -0.2063E+00  0.1310E+00
   33.00000 -0.1873E+00  0.3946E-01 -0.2040E+00  0.1278E+00
   33.20000 -0.1848E+00  0.3800E-01 -0.2019E+00  0.1247E+00
   33.40000 -0.1823E+00  0.3657E-01 -0.1998E+00  0.1217E+00
   33.60000 -0.1798E+00  0.3515E-01 -0.1977E+00  0.1187E+00
   33.80000 -0.1773E+00  0.3375E-01 -0.1957E+00  0.1159E+00
   34.00000 -0.1749E+00  0.3238E-01 -0.1938E+00  0.1131E+00
   34.20000 -0.1724E+00  0.3104E-01 -0.1919E+00  0.1104E+00
   34.40000 -0.1700E+00  0.2972E-01 -0.1901E+00  0.1077E+00
   34.60000 -0.1676E+00  0.2844E-01 -0.1884E+00  0.1050E+00
   34.80000 -0.1652E+00  0.2720E-01 -0.1866E+00  0.1023E+00
   35.00000 -0.1628E+00  0.2600E-01 -0.1849E+00  0.9973E-01
   35.20000 -0.1605E+00  0.2484E-01 -0.1832E+00  0.9714E-01
   35.40000 -0.1581E+00  0.2373E-01 -0.1815E+00  0.9458E-01
   35.60000 -0.1558E+00  0.2265E-01 -0.1798E+00  0.9204E-01
   35.80000 -0.1535E+00  0.2162E-01 -0.1781E+00  0.8954E-01
   36.00000 -0.1512E+00  0.2063E-01 -0.1763E+00  0.8708E-01
   36.20000 -0.1490E+00  0.1968E-01 -0.1746E+00  0.8466E-01
   36.40000 -0.1468E+00  0.1877E-01 -0.1729E+00  0.8227E-01
   36.60000 -0.1446E+00  0.1790E-01 -0.1712E+00  0.7994E-01
   36.80000 -0.1424E+00  0.1706E-01 -0.1694E+00  0.7765E-01
   37.00000 -0.1403E+00  0.1626E-01 -0.1677E+00  0.7541E-01
   37.20000 -0.1382E+00  0.1550E-01 -0.1660E+00  0.7322E-01
   37.40000 -0.1361E+00  0.1477E-01 -0.1642E+00  0.7108E-01
   37.60000 -0.1340E+00  0.1408E-01 -0.1625E+00  0.6899E-01
   37.80000 -0.1320E+00  0.1342E-01 -0.1607E+00  0.6695E-01
   38.00000 -0.1300E+00  0.1278E-01 -0.1590E+00  0.6496E-01
   38.20000 -0.1280E+00  0.1218E-01 -0.1573E+00  0.6302E-01
   38.40000 -0.1261E+00  0.1161E-01 -0.1555E+00  0.6113E-01
   38.60000 -0.1242E+00  0.1106E-01 -0.1538E+00  0.5929E-01
   38.80000 -0.1223E+00  0.1055E-01 -0.1521E+00  0.5750E-01
   39.00000 -0.1205E+00  0.1005E-01 -0.1504E+00  0.5575E-01
   39.20000 -0.1186E+00  0.9587E-02 -0.1487E+00  0.5404E-01
   39.40000 -0.1168E+00  0.9144E-02 -0.1471E+00  0.5238E-01
   39.60000 -0.1151E+00  0.8726E-02 -0.1454E+00  0.5076E-01
   39.80000 -0.1133E+00  0.8331E-02 -0.1438E+00  0.4917E-01
 # total strength in free response, rpa response, and sum rule
#                       0.7740E+02    0.7210E+02     0.7884E+02
